Distance (in),Time (s),X (in),Y (in),Velocity (in/s),Orientation (deg),Way X (in),Way Y (in),Way Velocity (in/s),Way Orientation (deg)
0,0,360,296,24,180,360,296,24,180
1,0.041180664,361,296,24.56648308,180,423.55,296,60,180
2,0.081422558,362,296,25.13296617,180,508,150,144,0
3,0.120767531,363,296,25.69944925,180,510,94,0,0
4,0.159254692,364,296,26.26593234,180,,,,
5,0.196920647,365,296,26.83241542,180,,,,
6,0.233799709,366,296,27.39889851,180,,,,
7,0.269924084,367,296,27.96538159,180,,,,
8,0.30532404,368,296,28.53186467,180,,,,
9,0.340028059,369,296,29.09834776,180,,,,
10,0.374062977,370,296,29.66483084,180,,,,
11,0.407454108,371,296,30.23131393,180,,,,
12,0.440225354,372,296,30.79779701,180,,,,
13,0.472399311,373,296,31.36428009,180,,,,
14,0.503997362,374,296,31.93076318,180,,,,
15,0.535039761,375,296,32.49724626,180,,,,
16,0.565545714,376,296,33.06372935,180,,,,
17,0.595533445,377,296,33.63021243,180,,,,
18,0.625020268,378,296,34.19669552,180,,,,
19,0.654022641,379,296,34.7631786,180,,,,
20,0.682556225,380,296,35.32966168,180,,,,
21,0.710635936,381,296,35.89614477,180,,,,
22,0.738275984,382,296,36.46262785,180,,,,
23,0.765489927,383,296,37.02911094,180,,,,
24,0.792290703,384,296,37.59559402,180,,,,
25,0.81869067,385,296,38.1620771,180,,,,
26,0.844701639,386,296,38.72856019,180,,,,
27,0.870334908,387,296,39.29504327,180,,,,
28,0.895601289,388,296,39.86152636,180,,,,
29,0.920511135,389,296,40.42800944,180,,,,
30,0.945074369,390,296,40.99449253,180,,,,
31,0.969300505,391,296,41.56097561,180,,,,
32,0.99319867,392,296,42.12745869,180,,,,
33,1.016777625,393,296,42.69394178,180,,,,
34,1.040045786,394,296,43.26042486,180,,,,
35,1.063011238,395,296,43.82690795,180,,,,
36,1.085681758,396,296,44.39339103,180,,,,
37,1.108064823,397,296,44.95987411,180,,,,
38,1.130167634,398,296,45.5263572,180,,,,
39,1.15199712,399,296,46.09284028,180,,,,
40,1.173559959,400,296,46.65932337,180,,,,
40.89205688,1.192563115,400.8920049,295.9903738,47.22580645,180,,,,
41.78411376,1.211339683,401.7835944,295.9614997,47.79228954,180,,,,
42.67617064,1.229895004,402.6743531,295.9133911,48.35877262,180,,,,
43.56822753,1.248234229,403.5638661,295.8460705,48.9252557,180,,,,
44.46028441,1.266362336,404.4517191,295.7595692,49.49173879,180,,,,
45.35234129,1.284284129,405.3374986,295.6539275,50.05822187,180,,,,
46.24439817,1.302004251,406.220792,295.5291946,50.62470496,180,,,,
47.13645505,1.319527191,407.1011878,295.3854286,51.19118804,180,,,,
48.02851193,1.336857288,407.9782761,295.2226965,51.75767113,180,,,,
48.92056882,1.353998742,408.8516481,295.041074,52.32415421,180,,,,
49.8126257,1.370955614,409.7208972,294.8406458,52.89063729,180,,,,
50.70468258,1.387731837,410.5856185,294.6215052,53.45712038,180,,,,
51.59673946,1.404331221,411.4454092,294.3837543,54.02360346,180,,,,
52.48879634,1.420757454,412.2998688,294.1275039,54.59008655,180,,,,
53.38085322,1.437014111,413.1485993,293.8528732,55.15656963,180,,,,
54.27291011,1.453104658,413.9912054,293.5599902,55.72305271,180,,,,
55.16496699,1.469032455,414.8272946,293.2489914,56.2895358,180,,,,
56.05702387,1.484800761,415.6564775,292.9200215,56.85601888,180,,,,
56.94908075,1.500412739,416.4783679,292.5732339,57.42250197,180,,,,
57.84113763,1.515871458,417.2925829,292.2087899,57.98898505,180,,,,
58.73319451,1.531179898,418.0987433,291.8268595,58.55546814,180,,,,
59.6252514,1.546340953,418.8964737,291.4276205,59.12195122,180,,,,
60.51730828,1.561357433,419.6854023,291.0112588,59.6884343,180,,,,
61.40936516,1.57626375,420.4651619,290.5779684,60,180,,,,
62.30142204,1.591069915,421.235389,290.1279511,60.49802933,181.0672057,,,,
63.19347892,1.605754694,421.9957251,289.6614166,60.99605867,182.1344114,,,,
64.0855358,1.620320059,422.745816,289.178582,61.494088,183.2016172,,,,
64.97759269,1.634767938,423.4853122,288.6796724,61.99211734,184.2688229,,,,
65.86964957,1.649100211,424.2138693,288.16492,62.49014667,185.3360286,,,,
66.76170645,1.663318713,424.931148,287.6345647,62.98817601,186.4032343,,,,
67.65376333,1.677425236,425.6368142,287.0888535,63.48620534,187.47044,,,,
68.54582021,1.69142153,426.3305392,286.5280406,63.98423468,188.5376457,,,,
69.43787709,1.705309304,427.0119999,285.9523872,64.48226401,189.6048515,,,,
70.32993398,1.719090229,427.6808788,285.3621614,64.98029335,190.6720572,,,,
71.22199086,1.732765936,428.3368644,284.7576381,65.47832268,191.7392629,,,,
72.11404774,1.746338019,428.9796511,284.139099,65.97635201,192.8064686,,,,
73.00610462,1.759808037,429.6089396,283.5068321,66.47438135,193.8736743,,,,
73.8981615,1.773177514,430.2244368,282.8611319,66.97241068,194.94088,,,,
74.79021838,1.786447939,430.8258558,282.2022991,67.47044002,196.0080858,,,,
75.68227527,1.799620769,431.4129168,281.5306408,67.96846935,197.0752915,,,,
76.57433215,1.812697429,431.9853461,280.8464696,68.46649869,198.1424972,,,,
77.46638903,1.825679314,432.5428771,280.1501043,68.96452802,199.2097029,,,,
78.35844591,1.838567787,433.0852502,279.4418693,69.46255736,200.2769086,,,,
79.25050279,1.851364183,433.6122127,278.7220943,69.96058669,201.3441143,,,,
80.25797061,1.865713614,434.0646443,277.8219293,70.45861602,202.4113201,,,,
81.25797061,1.879856359,434.5653417,276.9563069,70.95664536,203.4785258,,,,
82.25797061,1.893900187,435.066039,276.0906845,71.45467469,204.5457315,,,,
83.25797061,1.90784647,435.5667364,275.225062,71.95270403,205.6129372,,,,
84.25797061,1.921696556,436.0674337,274.3594396,72.45073336,206.6801429,,,,
85.25797061,1.935451762,436.5681311,273.4938172,72.9487627,207.7473486,,,,
86.25797061,1.949113379,437.0688284,272.6281948,73.44679203,208.8145544,,,,
87.25797061,1.962682672,437.5695258,271.7625724,73.94482137,209.8817601,,,,
88.25797061,1.976160881,438.0702231,270.89695,74.4428507,210.9489658,,,,
89.25797061,1.98954922,438.5709205,270.0313276,74.94088004,212.0161715,,,,
90.25797061,2.002848879,439.0716178,269.1657051,75.43890937,213.0833772,,,,
91.25797061,2.016061026,439.5723152,268.3000827,75.9369387,214.1505829,,,,
92.25797061,2.029186806,440.0730125,267.4344603,76.43496804,215.2177887,,,,
93.25797061,2.042227339,440.5737099,266.5688379,76.93299737,216.2849944,,,,
94.25797061,2.055183725,441.0744072,265.7032155,77.43102671,217.3522001,,,,
95.25797061,2.068057045,441.5751046,264.8375931,77.92905604,218.4194058,,,,
96.25797061,2.080848356,442.0758019,263.9719707,78.42708538,219.4866115,,,,
97.25797061,2.093558696,442.5764993,263.1063482,78.92511471,220.5538172,,,,
98.25797061,2.106189084,443.0771966,262.2407258,79.42314405,221.621023,,,,
99.25797061,2.11874052,443.577894,261.3751034,79.92117338,222.6882287,,,,
100.2579706,2.131213985,444.0785913,260.509481,80.41920271,223.7554344,,,,
101.2579706,2.143610441,444.5792886,259.6438586,80.91723205,224.8226401,,,,
102.2579706,2.155930833,445.079986,258.7782362,81.41526138,225.8898458,,,,
103.2579706,2.168176089,445.5806833,257.9126138,81.91329072,226.9570515,,,,
104.2579706,2.180347121,446.0813807,257.0469913,82.41132005,228.0242573,,,,
105.2579706,2.192444822,446.582078,256.1813689,82.90934939,229.091463,,,,
106.2579706,2.20447007,447.0827754,255.3157465,83.40737872,230.1586687,,,,
107.2579706,2.216423729,447.5834727,254.4501241,83.90540806,231.2258744,,,,
108.2579706,2.228306646,448.0841701,253.5845017,84.40343739,232.2930801,,,,
109.2579706,2.240119653,448.5848674,252.7188793,84.90146673,233.3602858,,,,
110.2579706,2.251863568,449.0855648,251.8532568,85.39949606,234.4274916,,,,
111.2579706,2.263539194,449.5862621,250.9876344,85.89752539,235.4946973,,,,
112.2579706,2.275147321,450.0869595,250.122012,86.39555473,236.561903,,,,
113.2579706,2.286688725,450.5876568,249.2563896,86.89358406,237.6291087,,,,
114.2579706,2.298164169,451.0883542,248.3907672,87.3916134,238.6963144,,,,
115.2579706,2.309574403,451.5890515,247.5251448,87.88964273,239.7635201,,,,
116.2579706,2.320920162,452.0897489,246.6595224,88.38767207,240.8307259,,,,
117.2579706,2.332202172,452.5904462,245.7938999,88.8857014,241.8979316,,,,
118.2579706,2.343421145,453.0911436,244.9282775,89.38373074,242.9651373,,,,
119.2579706,2.354577782,453.5918409,244.0626551,89.88176007,244.032343,,,,
120.2579706,2.365672772,454.0925383,243.1970327,90.37978941,245.0995487,,,,
121.2579706,2.376706791,454.5932356,242.3314103,90.87781874,246.1667544,,,,
122.2579706,2.387680508,455.093933,241.4657879,91.37584807,247.2339602,,,,
123.2579706,2.398594576,455.5946303,240.6001655,91.87387741,248.3011659,,,,
124.2579706,2.409449641,456.0953277,239.734543,92.37190674,249.3683716,,,,
125.2579706,2.420246338,456.596025,238.8689206,92.86993608,250.4355773,,,,
126.2579706,2.43098529,457.0967224,238.0032982,93.36796541,251.502783,,,,
127.2579706,2.441667113,457.5974197,237.1376758,93.86599475,252.5699887,,,,
128.2579706,2.452292411,458.0981171,236.2720534,94.36402408,253.6371945,,,,
129.2579706,2.462861779,458.5988144,235.406431,94.86205342,254.7044002,,,,
130.2579706,2.473375802,459.0995118,234.5408086,95.36008275,255.7716059,,,,
131.2579706,2.483835058,459.6002091,233.6751861,95.85811208,256.8388116,,,,
132.2579706,2.494240113,460.1009065,232.8095637,96.35614142,257.9060173,,,,
133.2579706,2.504591528,460.6016038,231.9439413,96.85417075,258.973223,,,,
134.2579706,2.514889851,461.1023012,231.0783189,97.35220009,260.0404288,,,,
135.2579706,2.525135625,461.6029985,230.2126965,97.85022942,261.1076345,,,,
136.2579706,2.535329384,462.1036959,229.3470741,98.34825876,262.1748402,,,,
137.2579706,2.545471652,462.6043932,228.4814517,98.84628809,263.2420459,,,,
138.2579706,2.555562948,463.1050906,227.6158292,99.34431743,264.3092516,,,,
139.2579706,2.565603781,463.6057879,226.7502068,99.84234676,265.3764573,,,,
140.2579706,2.575594653,464.1064853,225.8845844,100.3403761,266.4436631,,,,
141.2579706,2.585536059,464.6071826,225.018962,100.8384054,267.5108688,,,,
142.2579706,2.595428487,465.10788,224.1533396,101.3364348,268.5780745,,,,
143.2579706,2.605272416,465.6085773,223.2877172,101.8344641,269.6452802,,,,
144.2579706,2.615068321,466.1092746,222.4220947,102.3324934,270.7124859,,,,
145.2579706,2.624816666,466.609972,221.5564723,102.8305228,271.7796916,,,,
146.2579706,2.634517913,467.1106693,220.6908499,103.3285521,272.8468974,,,,
147.2579706,2.644172513,467.6113667,219.8252275,103.8265814,273.9141031,,,,
148.2579706,2.653780913,468.112064,218.9596051,104.3246108,274.9813088,,,,
149.2579706,2.663343554,468.6127614,218.0939827,104.8226401,276.0485145,,,,
150.2579706,2.672860869,469.1134587,217.2283603,105.3206694,277.1157202,,,,
151.2579706,2.682333285,469.6141561,216.3627378,105.8186988,278.1829259,,,,
152.2579706,2.691761225,470.1148534,215.4971154,106.3167281,279.2501317,,,,
153.2579706,2.701145103,470.6155508,214.631493,106.8147574,280.3173374,,,,
154.2579706,2.710485331,471.1162481,213.7658706,107.3127868,281.3845431,,,,
155.2579706,2.719782312,471.6169455,212.9002482,107.8108161,282.4517488,,,,
156.2579706,2.729036444,472.1176428,212.0346258,108.3088454,283.5189545,,,,
157.2579706,2.738248122,472.6183402,211.1690034,108.8068748,284.5861602,,,,
158.2579706,2.747417732,473.1190375,210.3033809,109.3049041,285.653366,,,,
159.2579706,2.756545658,473.6197349,209.4377585,109.8029335,286.7205717,,,,
160.2579706,2.765632275,474.1204322,208.5721361,110.3009628,287.7877774,,,,
161.2579706,2.774677958,474.6211296,207.7065137,110.7989921,288.8549831,,,,
162.2579706,2.783683072,475.1218269,206.8408913,111.2970215,289.9221888,,,,
163.2579706,2.792647981,475.6225243,205.9752689,111.7950508,290.9893945,,,,
164.2579706,2.801573041,476.1232216,205.1096465,112.2930801,292.0566003,,,,
165.2579706,2.810458605,476.623919,204.244024,112.7911095,293.123806,,,,
166.2579706,2.819305021,477.1246163,203.3784016,113.2891388,294.1910117,,,,
167.2579706,2.828112633,477.6253137,202.5127792,113.7871681,295.2582174,,,,
168.2579706,2.83688178,478.126011,201.6471568,114.2851975,296.3254231,,,,
169.2579706,2.845612795,478.6267084,200.7815344,114.7832268,297.3926288,,,,
170.2579706,2.85430601,479.1274057,199.915912,115.2812561,298.4598346,,,,
171.2579706,2.86296175,479.6281031,199.0502895,115.7792855,299.5270403,,,,
172.2579706,2.871580337,480.1288004,198.1846671,116.2773148,300.594246,,,,
173.2579706,2.880162089,480.6294978,197.3190447,116.7753441,301.6614517,,,,
174.2579706,2.888707318,481.1301951,196.4534223,117.2733735,302.7286574,,,,
175.2579706,2.897216335,481.6308925,195.5877999,117.7714028,303.7958631,,,,
176.2579706,2.905689446,482.1315898,194.7221775,118.2694321,304.8630689,,,,
177.2579706,2.914126951,482.6322872,193.8565551,118.7674615,305.9302746,,,,
178.2579706,2.922529149,483.1329845,192.9909326,119.2654908,306.9974803,,,,
179.2579706,2.930896334,483.6336819,192.1253102,119.7635201,308.064686,,,,
180.2579706,2.939228797,484.1343792,191.2596878,120.2615495,309.1318917,,,,
181.2579706,2.947526824,484.6350766,190.3940654,120.7595788,310.1990975,,,,
182.2579706,2.9557907,485.1357739,189.528443,121.2576081,311.2663032,,,,
183.2579706,2.964020704,485.6364713,188.6628206,121.7556375,312.3335089,,,,
184.2579706,2.972217113,486.1371686,187.7971982,122.2536668,313.4007146,,,,
185.2579706,2.9803802,486.6378659,186.9315757,122.7516961,314.4679203,,,,
186.2579706,2.988510234,487.1385633,186.0659533,123.2497255,315.535126,,,,
187.2579706,2.996607483,487.6392606,185.2003309,123.7477548,316.6023318,,,,
188.2579706,3.004672209,488.139958,184.3347085,124.2457842,317.6695375,,,,
189.2579706,3.012704673,488.6406553,183.4690861,124.7438135,318.7367432,,,,
190.2579706,3.020705132,489.1413527,182.6034637,125.2418428,319.8039489,,,,
191.2579706,3.02867384,489.64205,181.7378413,125.7398722,320.8711546,,,,
192.2579706,3.036611048,490.1427474,180.8722188,126.2379015,321.9383603,,,,
193.2579706,3.044517004,490.6434447,180.0065964,126.7359308,323.0055661,,,,
194.2579706,3.052391953,491.1441421,179.140974,127.2339602,324.0727718,,,,
195.2579706,3.060236138,491.6448394,178.2753516,127.7319895,325.1399775,,,,
196.2579706,3.068049798,492.1455368,177.4097292,128.2300188,326.2071832,,,,
197.2579706,3.075833169,492.6462341,176.5441068,128.7280482,327.2743889,,,,
198.2579706,3.083586485,493.1469315,175.6784844,129.2260775,328.3415946,,,,
199.2579706,3.091309979,493.6476288,174.8128619,129.7241068,329.4088004,,,,
200.2579706,3.099003877,494.1483262,173.9472395,130.2221362,330.4760061,,,,
201.2579706,3.106668407,494.6490235,173.0816171,130.7201655,331.5432118,,,,
202.2579706,3.114303791,495.1497209,172.2159947,131.2181948,332.6104175,,,,
203.2579706,3.12191025,495.6504182,171.3503723,131.7162242,333.6776232,,,,
204.2579706,3.129488003,496.1511156,170.4847499,132.2142535,334.7448289,,,,
205.2579706,3.137037266,496.6518129,169.6191274,132.7122828,335.8120347,,,,
206.2579706,3.144558252,497.1525103,168.753505,133.2103122,336.8792404,,,,
207.2579706,3.152051171,497.6532076,167.8878826,133.7083415,337.9464461,,,,
208.2579706,3.159516233,498.153905,167.0222602,134.2063708,339.0136518,,,,
209.2579706,3.166953645,498.6546023,166.1566378,134.7044002,340.0808575,,,,
210.2579706,3.174363609,499.1552997,165.2910154,135.2024295,341.1480632,,,,
211.2579706,3.181746328,499.655997,164.425393,135.7004588,342.215269,,,,
212.2579706,3.189102002,500.1566944,163.5597705,136.1984882,343.2824747,,,,
213.2579706,3.196430828,500.6573917,162.6941481,136.6965175,344.3496804,,,,
214.2579706,3.203733002,501.1580891,161.8285257,137.1945468,345.4168861,,,,
215.2579706,3.211008715,501.6587864,160.9629033,137.6925762,346.4840918,,,,
216.2579706,3.21825816,502.1594838,160.0972809,138.1906055,347.5512975,,,,
217.2184185,3.225195827,502.6324391,159.2613542,138.6886349,348.6185033,,,,
218.1788664,3.232108624,503.0893896,158.4165724,139.1866642,349.685709,,,,
219.1393142,3.238996731,503.5301697,157.5632419,139.6846935,350.7529147,,,,
220.0997621,3.245860323,503.9546195,156.7016721,140.1827229,351.8201204,,,,
221.06021,3.252699574,504.362585,155.8321755,140.6807522,352.8873261,,,,
222.0206579,3.259514656,504.7539182,154.9550675,141.1787815,353.9545318,,,,
222.9811057,3.266305739,505.1284773,154.0706662,141.6768109,355.0217376,,,,
223.9415536,3.273072991,505.4861263,153.1792924,142.1748402,356.0889433,,,,
224.9020015,3.27981658,505.8267357,152.2812694,142.6728695,357.156149,,,,
225.8624494,3.286536669,506.1501817,151.3769228,143.1708989,358.2233547,,,,
226.8228972,3.293233423,506.4563472,150.4665806,143.6689282,359.2905604,,,,
227.7833451,3.299910876,506.745121,149.5505731,144,0,,,,
228.743793,3.306640703,507.0163985,148.6292324,141.4302098,0,,,,
229.7042409,3.313493931,507.2700813,147.7028927,138.8604196,0,,,,
230.6646887,3.320475172,507.5060773,146.77189,136.2906294,0,,,,
231.6251366,3.327589299,507.7243009,145.836562,133.7208392,0,,,,
232.5855845,3.334841468,507.9246731,144.8972478,131.151049,0,,,,
233.5460324,3.342237143,508.107121,143.9542882,128.5812588,0,,,,
234.5064802,3.349782118,508.2715787,143.0080251,126.0114686,0,,,,
235.5095053,3.357823909,508.2855322,142.0050972,123.4416784,0,,,,
236.5095053,3.36601011,508.3212238,141.0057343,120.8718882,0,,,,
237.5095053,3.374372223,508.3569153,140.0063715,118.302098,0,,,,
238.5095053,3.382917975,508.3926068,139.0070086,115.7323078,0,,,,
239.5095053,3.391655613,508.4282984,138.0076457,113.1625176,0,,,,
240.5095053,3.400593951,508.4639899,137.0082829,110.5927274,0,,,,
241.5095053,3.409742426,508.4996814,136.00892,108.0229372,0,,,,
242.5095053,3.419111157,508.535373,135.0095572,105.453147,0,,,,
243.5095053,3.428711011,508.5710645,134.0101943,102.8833568,0,,,,
244.5095053,3.438553679,508.606756,133.0108315,100.3135667,0,,,,
245.5095053,3.448651765,508.6424475,132.0114686,97.74377646,0,,,,
246.5095053,3.459018877,508.6781391,131.0121058,95.17398626,0,,,,
247.5095053,3.469669741,508.7138306,130.0127429,92.60419606,0,,,,
248.5095053,3.480620329,508.7495221,129.0133801,90.03440587,0,,,,
249.5095053,3.491887997,508.7852137,128.0140172,87.46461567,0,,,,
250.5095053,3.503491655,508.8209052,127.0146544,84.89482547,0,,,,
251.5095053,3.515451956,508.8565967,126.0152915,82.32503527,0,,,,
252.5095053,3.52779152,508.8922883,125.0159286,79.75524508,0,,,,
253.5095053,3.540535187,508.9279798,124.0165658,77.18545488,0,,,,
254.5095053,3.553710321,508.9636713,123.0172029,74.61566468,0,,,,
255.5095053,3.567347161,508.9993629,122.0178401,72.04587449,0,,,,
256.5095053,3.581479244,509.0350544,121.0184772,69.47608429,0,,,,
257.5095053,3.596143895,509.0707459,120.0191144,66.90629409,0,,,,
258.5095053,3.611382826,509.1064374,119.0197515,64.3365039,0,,,,
259.5095053,3.62724285,509.142129,118.0203887,61.7667137,0,,,,
260.5095053,3.643776744,509.1778205,117.0210258,59.1969235,0,,,,
261.5095053,3.661044314,509.213512,116.021663,56.62713331,0,,,,
262.5095053,3.679113695,509.2492036,115.0223001,54.05734311,0,,,,
263.5095053,3.698062977,509.2848951,114.0229372,51.48755291,0,,,,
264.5095053,3.717982241,509.3205866,113.0235744,48.91776271,0,,,,
265.5095053,3.738976149,509.3562782,112.0242115,46.34797252,0,,,,
266.5095053,3.761167265,509.3919697,111.0248487,43.77818232,0,,,,
267.5095053,3.784700394,509.4276612,110.0254858,41.20839212,0,,,,
268.5095053,3.8097483,509.4633528,109.026123,38.63860193,0,,,,
269.5095053,3.836519405,509.4990443,108.0267601,36.06881173,0,,,,
270.5095053,3.865268324,509.5347358,107.0273973,33.49902153,0,,,,
271.5095053,3.896310606,509.5704273,106.0280344,30.92923134,0,,,,
272.5095053,3.930043862,509.6061189,105.0286716,28.35944114,0,,,,
273.5095053,3.966978923,509.6418104,104.0293087,25.78965094,0,,,,
274.5095053,4.007787328,509.6775019,103.0299458,23.21986075,0,,,,
275.5095053,4.05337664,509.7131935,102.030583,20.65007055,0,,,,
276.5095053,4.105015728,509.748885,101.0312201,18.08028035,0,,,,
277.5095053,4.164555893,509.7845765,100.0318573,15.51049016,0,,,,
278.5095053,4.234851722,509.8202681,99.03249443,12.94069996,0,,,,
279.5095053,4.320645883,509.8559596,98.03313157,10.37090976,0,,,,
280.5095053,4.430705137,509.8916511,97.03376872,7.801119565,0,,,,
281.5095053,4.584168236,509.9273426,96.03440587,5.231329368,0,,,,
282.5095053,4.837561536,509.9630342,95.03504301,2.661539171,0,,,,
283.5095053,5.563965709,509.9987257,94.03568016,0.091748974,0,,,,
283.5452082,6.342239361,510,94,0,0,,,,
