Distance (in),Time (s),X (in),Y (in),Velocity (in/s),Orientation (deg),Way X (in),Way Y (in),Way Velocity (in/s),Way Orientation (deg)
0,0,509.82,296,24,180,509.82,296,24,180
1,0.040379599,508.82,296,25.52996175,180,486.29,296,60,180
2,0.078409726,507.82,296,27.0599235,180,423.55,296,48,180
3,0.114348753,506.82,296,28.58988525,180,388,296,12,180
4,0.148414655,505.82,296,30.119847,180,360,296,6,180
5,0.180793013,504.82,296,31.64980875,180,,,,
6,0.211643128,503.82,296,33.17977051,180,,,,
7,0.241102764,502.82,296,34.70973226,180,,,,
8,0.269291857,501.82,296,36.23969401,180,,,,
9,0.29631547,500.82,296,37.76965576,180,,,,
10,0.322266149,499.82,296,39.29961751,180,,,,
11,0.34722584,498.82,296,40.82957926,180,,,,
12,0.371267446,497.82,296,42.35954101,180,,,,
13,0.394456109,496.82,296,43.88950276,180,,,,
14,0.416850276,495.82,296,45.41946451,180,,,,
15,0.438502588,494.82,296,46.94942626,180,,,,
16,0.459460618,493.82,296,48.47938802,180,,,,
17,0.479767509,492.82,296,50.00934977,180,,,,
18,0.4994625,491.82,296,51.53931152,180,,,,
19,0.51858139,490.82,296,53.06927327,180,,,,
20,0.537156923,489.82,296,54.59923502,180,,,,
21,0.555219132,488.82,296,56.12919677,180,,,,
22,0.572795623,487.82,296,57.65915852,180,,,,
23,0.589911835,486.82,296,59.18912027,180,,,,
23.53,0.598805265,486.29,296,60,180,,,,
24.53,0.615498538,485.29,296,59.80873446,180,,,,
25.53,0.632245282,484.29,296,59.61746892,180,,,,
26.53,0.649045839,483.29,296,59.42620338,180,,,,
27.53,0.665900556,482.29,296,59.23493784,180,,,,
28.53,0.682809784,481.29,296,59.0436723,180,,,,
29.53,0.699773877,480.29,296,58.85240676,180,,,,
30.53,0.716793191,479.29,296,58.66114122,180,,,,
31.53,0.733868088,478.29,296,58.46987568,180,,,,
32.53,0.750998931,477.29,296,58.27861014,180,,,,
33.53,0.768186089,476.29,296,58.0873446,180,,,,
34.53,0.785429932,475.29,296,57.89607906,180,,,,
35.53,0.802730836,474.29,296,57.70481352,180,,,,
36.53,0.820089181,473.29,296,57.51354798,180,,,,
37.53,0.837505348,472.29,296,57.32228244,180,,,,
38.53,0.854979724,471.29,296,57.1310169,180,,,,
39.53,0.8725127,470.29,296,56.93975135,180,,,,
40.53,0.890104669,469.29,296,56.74848581,180,,,,
41.53,0.907756031,468.29,296,56.55722027,180,,,,
42.53,0.925467187,467.29,296,56.36595473,180,,,,
43.53,0.943238544,466.29,296,56.17468919,180,,,,
44.53,0.961070514,465.29,296,55.98342365,180,,,,
45.53,0.978963509,464.29,296,55.79215811,180,,,,
46.53,0.996917951,463.29,296,55.60089257,180,,,,
47.53,1.014934261,462.29,296,55.40962703,180,,,,
48.53,1.033012869,461.29,296,55.21836149,180,,,,
49.53,1.051154206,460.29,296,55.02709595,180,,,,
50.53,1.069358709,459.29,296,54.83583041,180,,,,
51.53,1.08762682,458.29,296,54.64456487,180,,,,
52.53,1.105958985,457.29,296,54.45329933,180,,,,
53.53,1.124355654,456.29,296,54.26203379,180,,,,
54.53,1.142817283,455.29,296,54.07076825,180,,,,
55.53,1.161344332,454.29,296,53.87950271,180,,,,
56.53,1.179937267,453.29,296,53.68823717,180,,,,
57.53,1.198596558,452.29,296,53.49697163,180,,,,
58.53,1.21732268,451.29,296,53.30570609,180,,,,
59.53,1.236116114,450.29,296,53.11444055,180,,,,
60.53,1.254977346,449.29,296,52.92317501,180,,,,
61.53,1.273906865,448.29,296,52.73190947,180,,,,
62.53,1.292905169,447.29,296,52.54064393,180,,,,
63.53,1.31197276,446.29,296,52.34937839,180,,,,
64.53,1.331110144,445.29,296,52.15811285,180,,,,
65.53,1.350317835,444.29,296,51.96684731,180,,,,
66.53,1.36959635,443.29,296,51.77558177,180,,,,
67.53,1.388946214,442.29,296,51.58431623,180,,,,
68.53,1.408367958,441.29,296,51.39305069,180,,,,
69.53,1.427862116,440.29,296,51.20178515,180,,,,
70.53,1.447429232,439.29,296,51.0105196,180,,,,
71.53,1.467069853,438.29,296,50.81925406,180,,,,
72.53,1.486784534,437.29,296,50.62798852,180,,,,
73.53,1.506573835,436.29,296,50.43672298,180,,,,
74.53,1.526438323,435.29,296,50.24545744,180,,,,
75.53,1.546378572,434.29,296,50.0541919,180,,,,
76.53,1.566395162,433.29,296,49.86292636,180,,,,
77.53,1.58648868,432.29,296,49.67166082,180,,,,
78.53,1.606659719,431.29,296,49.48039528,180,,,,
79.53,1.62690888,430.29,296,49.28912974,180,,,,
80.53,1.64723677,429.29,296,49.0978642,180,,,,
81.53,1.667644004,428.29,296,48.90659866,180,,,,
82.53,1.688131204,427.29,296,48.71533312,180,,,,
83.53,1.708698998,426.29,296,48.52406758,180,,,,
84.53,1.729348024,425.29,296,48.33280204,180,,,,
85.53,1.750078925,424.29,296,48.1415365,180,,,,
86.27,1.765472896,423.55,296,48,180,,,,
87.27,1.786528333,422.55,296,46.98734177,180,,,,
88.27,1.808042494,421.55,296,45.97468354,180,,,,
89.27,1.830035813,420.55,296,44.96202532,180,,,,
90.27,1.852530118,419.55,296,43.94936709,180,,,,
91.27,1.875548766,418.55,296,42.93670886,180,,,,
92.27,1.899116785,417.55,296,41.92405063,180,,,,
93.27,1.92326104,416.55,296,40.91139241,180,,,,
94.27,1.948010413,415.55,296,39.89873418,180,,,,
95.27,1.973396017,414.55,296,38.88607595,180,,,,
96.27,1.999451426,413.55,296,37.87341772,180,,,,
97.27,2.026212944,412.55,296,36.86075949,180,,,,
98.27,2.053719907,411.55,296,35.84810127,180,,,,
99.27,2.082015036,410.55,296,34.83544304,180,,,,
100.27,2.11114483,409.55,296,33.82278481,180,,,,
101.27,2.141160027,408.55,296,32.81012658,180,,,,
102.27,2.17211614,407.55,296,31.79746835,180,,,,
103.27,2.204074069,406.55,296,30.78481013,180,,,,
104.27,2.237100825,405.55,296,29.7721519,180,,,,
105.27,2.271270375,404.55,296,28.75949367,180,,,,
106.27,2.30666464,403.55,296,27.74683544,180,,,,
107.27,2.343374678,402.55,296,26.73417722,180,,,,
108.27,2.381502091,401.55,296,25.72151899,180,,,,
109.27,2.421160725,400.55,296,24.70886076,180,,,,
110.27,2.462478717,399.55,296,23.69620253,180,,,,
111.27,2.505600988,398.55,296,22.6835443,180,,,,
112.27,2.550692312,397.55,296,21.67088608,180,,,,
113.27,2.597941116,396.55,296,20.65822785,180,,,,
114.27,2.647564231,395.55,296,19.64556962,180,,,,
115.27,2.699812908,394.55,296,18.63291139,180,,,,
116.27,2.754980506,393.55,296,17.62025316,180,,,,
117.27,2.813412459,392.55,296,16.60759494,180,,,,
118.27,2.875519377,391.55,296,15.59493671,180,,,,
119.27,2.941794545,390.55,296,14.58227848,180,,,,
120.27,3.01283771,389.55,296,13.56962025,180,,,,
121.27,3.089388098,388.55,296,12.55696203,180,,,,
121.82,3.134181912,388,296,12,180,,,,
122.82,3.218265996,387,296,11.78571429,180,,,,
123.82,3.303892908,386,296,11.57142857,180,,,,
124.82,3.391120322,385,296,11.35714286,180,,,,
125.82,3.480009211,384,296,11.14285714,180,,,,
126.82,3.570624098,383,296,10.92857143,180,,,,
127.82,3.663033339,382,296,10.71428571,180,,,,
128.82,3.757309433,381,296,10.5,180,,,,
129.82,3.853529364,380,296,10.28571429,180,,,,
130.82,3.951774978,379,296,10.07142857,180,,,,
131.82,4.052133401,378,296,9.857142857,180,,,,
132.82,4.154697504,377,296,9.642857143,180,,,,
133.82,4.259566418,376,296,9.428571429,180,,,,
134.82,4.366846111,375,296,9.214285714,180,,,,
135.82,4.476650033,374,296,9,180,,,,
136.82,4.589099832,373,296,8.785714286,180,,,,
137.82,4.704326169,372,296,8.571428571,180,,,,
138.82,4.822469629,371,296,8.357142857,180,,,,
139.82,4.94368175,370,296,8.142857143,180,,,,
140.82,5.068126195,369,296,7.928571429,180,,,,
141.82,5.195980076,368,296,7.714285714,180,,,,
142.82,5.327435475,367,296,7.5,180,,,,
143.82,5.462701176,366,296,7.285714286,180,,,,
144.82,5.602004658,365,296,7.071428571,180,,,,
145.82,5.745594402,364,296,6.857142857,180,,,,
146.82,5.89374255,363,296,6.642857143,180,,,,
147.82,6.046748015,362,296,6.428571429,180,,,,
148.82,6.204940105,361,296,6.214285714,180,,,,
149.82,6.368682795,360,296,6,180,,,,
