Distance (in),Time (s),X (in),Y (in),Velocity (in/s),Orientation (deg),Way X (in),Way Y (in),Way Velocity (in/s),Way Orientation (deg)
0,0,387,295,24,205,387,295,24,205
1,0.040828865,388,295,24.98495212,204.3160055,423.55,295,60,180
2,0.080079295,389,295,25.96990424,203.6320109,508,150,144,0
3,0.11786879,390,295,26.95485636,202.9480164,510,125,0,0
4,0.154302203,391,295,27.93980848,202.2640219,,,,
5,0.189473489,392,295,28.9247606,201.5800274,,,,
6,0.223467164,393,295,29.90971272,200.8960328,,,,
7,0.256359533,394,295,30.89466484,200.2120383,,,,
8,0.288219714,395,295,31.87961696,199.5280438,,,,
9,0.319110519,396,295,32.86456908,198.8440492,,,,
10,0.349089193,397,295,33.8495212,198.1600547,,,,
11,0.378208059,398,295,34.83447332,197.4760602,,,,
12,0.40651506,399,295,35.81942544,196.7920657,,,,
13,0.43405424,400,295,36.80437756,196.1080711,,,,
14,0.460866154,401,295,37.78932969,195.4240766,,,,
15,0.486988223,402,295,38.77428181,194.7400821,,,,
16,0.512455057,403,295,39.75923393,194.0560876,,,,
17,0.537298722,404,295,40.74418605,193.372093,,,,
18,0.561548988,405,295,41.72913817,192.6880985,,,,
18.8886757,0.582596873,405.8885946,294.987996,42.71409029,192.004104,,,,
19.7773514,0.603164944,406.7765407,294.9519927,43.69904241,191.3201094,,,,
20.66602711,0.623274588,407.6631902,294.8920164,44.68399453,190.6361149,,,,
21.55470281,0.642945795,408.547896,294.8081108,45.66894665,189.9521204,,,,
22.44337851,0.662197274,409.4300124,294.7003373,46.65389877,189.2681259,,,,
23.33205421,0.681046565,410.3088957,294.5687745,47.63885089,188.5841313,,,,
24.22072992,0.699510126,411.1839043,294.4135183,48.62380301,187.9001368,,,,
25.10940562,0.717603429,412.0543996,294.2346821,49.60875513,187.2161423,,,,
25.99808132,0.735341031,412.9197463,294.0323964,50.59370725,186.5321477,,,,
26.88675702,0.752736648,413.779313,293.8068089,51.57865937,185.8481532,,,,
27.77543273,0.769803219,414.6324721,293.5580842,52.56361149,185.1641587,,,,
28.66410843,0.786552959,415.4786011,293.2864038,53.54856361,184.4801642,,,,
29.55278413,0.802997419,416.3170824,292.991966,54.53351573,183.7961696,,,,
30.44145983,0.819147527,417.1473041,292.6749858,55.51846785,183.1121751,,,,
31.33013554,0.835013635,417.9686602,292.3356943,56.50341997,182.4281806,,,,
32.21881124,0.850605559,418.7805512,291.9743394,57.48837209,181.744186,,,,
33.10748694,0.865932615,419.5823847,291.5911846,58.47332421,181.0601915,,,,
33.99616264,0.881003651,420.3735754,291.1865097,59.45827633,180.376197,,,,
34.88483834,0.89588208,421.1535459,290.7606099,60,180,,,,
35.77351405,0.910631811,421.9217268,290.3137962,60.50059628,181.0727063,,,,
36.66218975,0.925260002,422.6775577,289.8463947,61.00119256,182.1454126,,,,
37.55086545,0.93976864,423.4204868,289.3587464,61.50178884,183.2181189,,,,
38.43954115,0.954159663,424.1499719,288.8512072,62.00238512,184.2908253,,,,
39.32821686,0.968434963,424.8654806,288.3241477,62.5029814,185.3635316,,,,
40.21689256,0.982596385,425.5664907,287.7779524,63.00357769,186.4362379,,,,
41.10556826,0.996645733,426.2524906,287.21302,63.50417397,187.5089442,,,,
41.99424396,1.010584766,426.9229797,286.6297627,64.00477025,188.5816505,,,,
42.88291967,1.024415204,427.5774684,286.0286064,64.50536653,189.6543568,,,,
43.77159537,1.038138724,428.2154793,285.4099897,65.00596281,190.7270632,,,,
44.66027107,1.051756969,428.8365466,284.7743641,65.50655909,191.7997695,,,,
45.54894677,1.065271539,429.4402171,284.1221936,66.00715537,192.8724758,,,,
46.43762248,1.078684003,430.0260502,283.453954,66.50775165,193.9451821,,,,
47.32629818,1.091995892,430.5936183,282.7701331,67.00834793,195.0178884,,,,
48.21497388,1.105208701,431.1425072,282.0712301,67.50894421,196.0905947,,,,
49.22321721,1.120088492,431.6024487,281.1740075,68.00954049,197.1633011,,,,
50.22321721,1.134738395,432.1057268,280.3098829,68.51013678,198.2360074,,,,
51.22321721,1.149281642,432.6090048,279.4457584,69.01073306,199.3087137,,,,
52.22321721,1.163719775,433.1122829,278.5816339,69.51132934,200.38142,,,,
53.22321721,1.178054303,433.6155609,277.7175093,70.01192562,201.4541263,,,,
54.22321721,1.192286702,434.118839,276.8533848,70.5125219,202.5268326,,,,
55.22321721,1.206418417,434.622117,275.9892603,71.01311818,203.599539,,,,
56.22321721,1.220450862,435.1253951,275.1251358,71.51371446,204.6722453,,,,
57.22321721,1.234385423,435.6286731,274.2610112,72.01431074,205.7449516,,,,
58.22321721,1.248223456,436.1319512,273.3968867,72.51490702,206.8176579,,,,
59.22321721,1.261966288,436.6352292,272.5327622,73.0155033,207.8903642,,,,
60.22321721,1.275615221,437.1385073,271.6686376,73.51609958,208.9630705,,,,
61.22321721,1.289171529,437.6417853,270.8045131,74.01669587,210.0357769,,,,
62.22321721,1.30263646,438.1450634,269.9403886,74.51729215,211.1084832,,,,
63.22321721,1.316011239,438.6483414,269.076264,75.01788843,212.1811895,,,,
64.22321721,1.329297065,439.1516194,268.2121395,75.51848471,213.2538958,,,,
65.22321721,1.342495112,439.6548975,267.348015,76.01908099,214.3266021,,,,
66.22321721,1.355606534,440.1581755,266.4838904,76.51967727,215.3993084,,,,
67.22321721,1.36863246,440.6614536,265.6197659,77.02027355,216.4720148,,,,
68.22321721,1.381573997,441.1647316,264.7556414,77.52086983,217.5447211,,,,
69.22321721,1.394432233,441.6680097,263.8915168,78.02146611,218.6174274,,,,
70.22321721,1.407208232,442.1712877,263.0273923,78.52206239,219.6901337,,,,
71.22321721,1.41990304,442.6745658,262.1632678,79.02265867,220.76284,,,,
72.22321721,1.432517683,443.1778438,261.2991432,79.52325496,221.8355463,,,,
73.22321721,1.445053166,443.6811219,260.4350187,80.02385124,222.9082526,,,,
74.22321721,1.457510476,444.1843999,259.5708942,80.52444752,223.980959,,,,
75.22321721,1.469890583,444.687678,258.7067696,81.0250438,225.0536653,,,,
76.22321721,1.482194438,445.190956,257.8426451,81.52564008,226.1263716,,,,
77.22321721,1.494422974,445.6942341,256.9785206,82.02623636,227.1990779,,,,
78.22321721,1.506577107,446.1975121,256.114396,82.52683264,228.2717842,,,,
79.22321721,1.518657739,446.7007901,255.2502715,83.02742892,229.3444905,,,,
80.22321721,1.530665751,447.2040682,254.386147,83.5280252,230.4171969,,,,
81.22321721,1.542602013,447.7073462,253.5220224,84.02862148,231.4899032,,,,
82.22321721,1.554467376,448.2106243,252.6578979,84.52921776,232.5626095,,,,
83.22321721,1.566262679,448.7139023,251.7937734,85.02981405,233.6353158,,,,
84.22321721,1.577988742,449.2171804,250.9296488,85.53041033,234.7080221,,,,
85.22321721,1.589646375,449.7204584,250.0655243,86.03100661,235.7807284,,,,
86.22321721,1.601236371,450.2237365,249.2013998,86.53160289,236.8534348,,,,
87.22321721,1.612759511,450.7270145,248.3372752,87.03219917,237.9261411,,,,
88.22321721,1.624216562,451.2302926,247.4731507,87.53279545,238.9988474,,,,
89.22321721,1.635608277,451.7335706,246.6090262,88.03339173,240.0715537,,,,
90.22321721,1.646935398,452.2368487,245.7449016,88.53398801,241.14426,,,,
91.22321721,1.658198652,452.7401267,244.8807771,89.03458429,242.2169663,,,,
92.22321721,1.669398756,453.2434048,244.0166526,89.53518057,243.2896727,,,,
93.22321721,1.680536415,453.7466828,243.152528,90.03577685,244.362379,,,,
94.22321721,1.69161232,454.2499608,242.2884035,90.53637314,245.4350853,,,,
95.22321721,1.702627153,454.7532389,241.424279,91.03696942,246.5077916,,,,
96.22321721,1.713581583,455.2565169,240.5601545,91.5375657,247.5804979,,,,
97.22321721,1.724476269,455.759795,239.6960299,92.03816198,248.6532042,,,,
98.22321721,1.73531186,456.263073,238.8319054,92.53875826,249.7259106,,,,
99.22321721,1.746088993,456.7663511,237.9677809,93.03935454,250.7986169,,,,
100.2232172,1.756808296,457.2696291,237.1036563,93.53995082,251.8713232,,,,
101.2232172,1.767470385,457.7729072,236.2395318,94.0405471,252.9440295,,,,
102.2232172,1.778075868,458.2761852,235.3754073,94.54114338,254.0167358,,,,
103.2232172,1.788625344,458.7794633,234.5112827,95.04173966,255.0894421,,,,
104.2232172,1.7991194,459.2827413,233.6471582,95.54233594,256.1621485,,,,
105.2232172,1.809558616,459.7860194,232.7830337,96.04293223,257.2348548,,,,
106.2232172,1.819943562,460.2892974,231.9189091,96.54352851,258.3075611,,,,
107.2232172,1.8302748,460.7925755,231.0547846,97.04412479,259.3802674,,,,
108.2232172,1.840552881,461.2958535,230.1906601,97.54472107,260.4529737,,,,
109.2232172,1.850778351,461.7991315,229.3265355,98.04531735,261.52568,,,,
110.2232172,1.860951744,462.3024096,228.462411,98.54591363,262.5983864,,,,
111.2232172,1.87107359,462.8056876,227.5982865,99.04650991,263.6710927,,,,
112.2232172,1.881144407,463.3089657,226.7341619,99.54710619,264.743799,,,,
113.2232172,1.891164708,463.8122437,225.8700374,100.0477025,265.8165053,,,,
114.2232172,1.901134996,464.3155218,225.0059129,100.5482988,266.8892116,,,,
115.2232172,1.911055769,464.8187998,224.1417883,101.048895,267.9619179,,,,
116.2232172,1.920927516,465.3220779,223.2776638,101.5494913,269.0346242,,,,
117.2232172,1.930750719,465.8253559,222.4135393,102.0500876,270.1073306,,,,
118.2232172,1.940525853,466.328634,221.5494147,102.5506839,271.1800369,,,,
119.2232172,1.950253387,466.831912,220.6852902,103.0512802,272.2527432,,,,
120.2232172,1.959933781,467.3351901,219.8211657,103.5518764,273.3254495,,,,
121.2232172,1.969567491,467.8384681,218.9570411,104.0524727,274.3981558,,,,
122.2232172,1.979154964,468.3417462,218.0929166,104.553069,275.4708621,,,,
123.2232172,1.988696642,468.8450242,217.2287921,105.0536653,276.5435685,,,,
124.2232172,1.998192961,469.3483022,216.3646675,105.5542616,277.6162748,,,,
125.2232172,2.007644349,469.8515803,215.500543,106.0548578,278.6889811,,,,
126.2232172,2.017051231,470.3548583,214.6364185,106.5554541,279.7616874,,,,
127.2232172,2.026414022,470.8581364,213.7722939,107.0560504,280.8343937,,,,
128.2232172,2.035733135,471.3614144,212.9081694,107.5566467,281.9071,,,,
129.2232172,2.045008976,471.8646925,212.0440449,108.057243,282.9798064,,,,
130.2232172,2.054241943,472.3679705,211.1799203,108.5578392,284.0525127,,,,
131.2232172,2.063432432,472.8712486,210.3157958,109.0584355,285.125219,,,,
132.2232172,2.072580832,473.3745266,209.4516713,109.5590318,286.1979253,,,,
133.2232172,2.081687526,473.8778047,208.5875467,110.0596281,287.2706316,,,,
134.2232172,2.090752894,474.3810827,207.7234222,110.5602244,288.3433379,,,,
135.2232172,2.099777307,474.8843608,206.8592977,111.0608207,289.4160443,,,,
136.2232172,2.108761136,475.3876388,205.9951732,111.5614169,290.4887506,,,,
137.2232172,2.117704742,475.8909169,205.1310486,112.0620132,291.5614569,,,,
138.2232172,2.126608486,476.3941949,204.2669241,112.5626095,292.6341632,,,,
139.2232172,2.13547272,476.897473,203.4027996,113.0632058,293.7068695,,,,
140.2232172,2.144297793,477.400751,202.538675,113.5638021,294.7795758,,,,
141.2232172,2.153084051,477.904029,201.6745505,114.0643983,295.8522822,,,,
142.2232172,2.161831832,478.4073071,200.810426,114.5649946,296.9249885,,,,
143.2232172,2.170541474,478.9105851,199.9463014,115.0655909,297.9976948,,,,
144.2232172,2.179213305,479.4138632,199.0821769,115.5661872,299.0704011,,,,
145.2232172,2.187847655,479.9171412,198.2180524,116.0667835,300.1431074,,,,
146.2232172,2.196444844,480.4204193,197.3539278,116.5673797,301.2158137,,,,
147.2232172,2.205005193,480.9236973,196.4898033,117.067976,302.2885201,,,,
148.2232172,2.213529014,481.4269754,195.6256788,117.5685723,303.3612264,,,,
149.2232172,2.222016619,481.9302534,194.7615542,118.0691686,304.4339327,,,,
150.2232172,2.230468313,482.4335315,193.8974297,118.5697649,305.506639,,,,
151.2232172,2.2388844,482.9368095,193.0333052,119.0703611,306.5793453,,,,
152.2232172,2.247265179,483.4400876,192.1691806,119.5709574,307.6520516,,,,
153.2232172,2.255610943,483.9433656,191.3050561,120.0715537,308.7247579,,,,
154.2232172,2.263921986,484.4466437,190.4409316,120.57215,309.7974643,,,,
155.2232172,2.272198593,484.9499217,189.576807,121.0727463,310.8701706,,,,
156.2232172,2.28044105,485.4531997,188.7126825,121.5733426,311.9428769,,,,
157.2232172,2.288649638,485.9564778,187.848558,122.0739388,313.0155832,,,,
158.2232172,2.296824633,486.4597558,186.9844334,122.5745351,314.0882895,,,,
159.2232172,2.304966309,486.9630339,186.1203089,123.0751314,315.1609958,,,,
160.2232172,2.313074936,487.4663119,185.2561844,123.5757277,316.2337022,,,,
161.2232172,2.321150783,487.96959,184.3920598,124.076324,317.3064085,,,,
162.2232172,2.329194113,488.472868,183.5279353,124.5769202,318.3791148,,,,
163.2232172,2.337205186,488.9761461,182.6638108,125.0775165,319.4518211,,,,
164.2232172,2.345184261,489.4794241,181.7996862,125.5781128,320.5245274,,,,
165.2232172,2.353131592,489.9827022,180.9355617,126.0787091,321.5972337,,,,
166.2232172,2.36104743,490.4859802,180.0714372,126.5793054,322.6699401,,,,
167.2232172,2.368932024,490.9892583,179.2073126,127.0799016,323.7426464,,,,
168.2232172,2.376785621,491.4925363,178.3431881,127.5804979,324.8153527,,,,
169.2232172,2.384608462,491.9958144,177.4790636,128.0810942,325.888059,,,,
170.2232172,2.392400788,492.4990924,176.614939,128.5816905,326.9607653,,,,
171.2232172,2.400162835,493.0023704,175.7508145,129.0822868,328.0334716,,,,
172.2232172,2.407894838,493.5056485,174.88669,129.582883,329.106178,,,,
173.2232172,2.41559703,494.0089265,174.0225654,130.0834793,330.1788843,,,,
174.2232172,2.423269638,494.5122046,173.1584409,130.5840756,331.2515906,,,,
175.2232172,2.430912889,495.0154826,172.2943164,131.0846719,332.3242969,,,,
176.2232172,2.438527007,495.5187607,171.4301918,131.5852682,333.3970032,,,,
177.2232172,2.446112214,496.0220387,170.5660673,132.0858645,334.4697095,,,,
178.2232172,2.453668728,496.5253168,169.7019428,132.5864607,335.5424159,,,,
179.2232172,2.461196764,497.0285948,168.8378183,133.087057,336.6151222,,,,
180.2232172,2.468696538,497.5318729,167.9736937,133.5876533,337.6878285,,,,
181.2232172,2.47616826,498.0351509,167.1095692,134.0882496,338.7605348,,,,
182.2232172,2.48361214,498.538429,166.2454447,134.5888459,339.8332411,,,,
183.2232172,2.491028384,499.041707,165.3813201,135.0894421,340.9059474,,,,
184.2232172,2.498417197,499.5449851,164.5171956,135.5900384,341.9786538,,,,
185.2232172,2.505778781,500.0482631,163.6530711,136.0906347,343.0513601,,,,
186.2232172,2.513113335,500.5515411,162.7889465,136.591231,344.1240664,,,,
187.2232172,2.520421058,501.0548192,161.924822,137.0918273,345.1967727,,,,
188.2232172,2.527702145,501.5580972,161.0606975,137.5924235,346.269479,,,,
189.2232172,2.53495679,502.0613753,160.1965729,138.0930198,347.3421853,,,,
190.2232172,2.542185184,502.5646533,159.3324484,138.5936161,348.4148916,,,,
191.2232172,2.549387516,503.0679314,158.4683239,139.0942124,349.487598,,,,
192.2232172,2.556563974,503.5712094,157.6041993,139.5948087,350.5603043,,,,
193.2232172,2.563714743,504.0744875,156.7400748,140.0954049,351.6330106,,,,
194.2232172,2.570840006,504.5777655,155.8759503,140.5960012,352.7057169,,,,
195.2232172,2.577939944,505.0810436,155.0118257,141.0965975,353.7784232,,,,
196.2232172,2.585014736,505.5843216,154.1477012,141.5971938,354.8511295,,,,
197.1799928,2.591759837,506.048215,153.3109083,142.0977901,355.9238359,,,,
198.1367683,2.598481216,506.4762296,152.455208,142.5983864,356.9965422,,,,
199.0935439,2.605179042,506.8675966,151.582138,143.0989826,358.0692485,,,,
200.0503194,2.611853477,507.2216126,150.6932667,143.5995789,359.1419548,,,,
201.0070949,2.618507003,507.5376416,149.7901913,144,0,,,,
201.9638705,2.625286434,507.8151158,148.8745345,138.258344,0,,,,
202.920646,2.632353375,508.0535367,147.9479413,132.516688,0,,,,
203.8774216,2.639733291,508.2524758,147.0120766,126.775032,0,,,,
204.8789698,2.647816537,508.3189809,146.0127389,121.033376,0,,,,
205.8789698,2.656279456,508.3987261,145.0159236,115.29172,0,,,,
206.8789698,2.665174599,508.4784713,144.0191083,109.550064,0,,,,
207.8789698,2.674548495,508.5582166,143.0222931,103.808408,0,,,,
208.8789698,2.684455608,508.6379618,142.0254778,98.06675197,0,,,,
209.8789698,2.694960259,508.717707,141.0286625,92.32509596,0,,,,
210.8789698,2.706139156,508.7974522,140.0318472,86.58343996,0,,,,
211.8789698,2.718084787,508.8771974,139.0350319,80.84178395,0,,,,
212.8789698,2.730910075,508.9569427,138.0382167,75.10012795,0,,,,
213.8789698,2.744754872,509.0366879,137.0414014,69.35847194,0,,,,
214.8789698,2.759795261,509.1164331,136.0445861,63.61681594,0,,,,
215.8789698,2.776257254,509.1961783,135.0477708,57.87515993,0,,,,
216.8789698,2.79443764,509.2759236,134.0509555,52.13350393,0,,,,
217.8789698,2.814736984,509.3556688,133.0541403,46.39184793,0,,,,
218.8789698,2.837714386,509.435414,132.057325,40.65019192,0,,,,
219.8789698,2.864183863,509.5151592,131.0605097,34.90853592,0,,,,
220.8789698,2.895397082,509.5949044,130.0636944,29.16687991,0,,,,
221.8789698,2.933425605,509.6746497,129.0668792,23.42522391,0,,,,
222.8789698,2.982076998,509.7543949,128.0700639,17.6835679,0,,,,
223.8789698,3.049586453,509.8341401,127.0732486,11.9419119,0,,,,
224.8789698,3.159826862,509.9138853,126.0764333,6.200255895,0,,,,
225.8789698,3.460178764,509.9936306,125.079618,0.458599891,0,,,,
225.9588422,3.808510326,510,125,0,0,,,,
